energy,sigma
1.00E-11,21.7846
1.10E-11,20.7422
1.22E-11,19.7497
1.34E-11,18.8046
1.48E-11,17.9048
1.63E-11,17.0481
1.80E-11,16.2323
1.99E-11,15.4556
2.19E-11,14.716
2.42E-11,14.0118
2.67E-11,13.3413
2.94E-11,12.703
3.24E-11,12.0951
3.58E-11,11.5163
3.95E-11,10.9653
4.35E-11,10.4406
4.80E-11,9.94099
5.30E-11,9.46531
5.84E-11,9.01239
6.44E-11,8.58114
7.11E-11,8.17052
7.84E-11,7.77956
8.65E-11,7.4073
9.54E-11,7.05286
1.05E-10,6.71537
1.16E-10,6.39404
1.28E-10,6.08808
1.41E-10,5.79676
1.56E-10,5.51938
1.72E-10,5.25528
1.90E-10,5.00381
2.09E-10,4.76437
2.31E-10,4.5364
2.54E-10,4.31933
2.81E-10,4.11264
3.09E-10,3.91585
3.41E-10,3.72848
3.77E-10,3.55007
4.15E-10,3.3802
4.58E-10,3.21845
5.05E-10,3.06445
5.57E-10,2.91782
6.15E-10,2.7782
6.78E-10,2.64526
7.48E-10,2.51869
8.25E-10,2.39817
9.10E-10,2.28341
1.00E-09,2.17415
1.11E-09,2.07012
1.22E-09,1.97106
1.35E-09,1.87675
1.49E-09,1.78695
1.64E-09,1.70144
1.81E-09,1.62003
1.99E-09,1.54251
2.20E-09,1.4687
2.43E-09,1.39842
2.68E-09,1.33151
2.95E-09,1.26779
3.26E-09,1.20713
3.59E-09,1.14937
3.96E-09,1.09437
4.37E-09,1.042
4.82E-09,0.992142
5.32E-09,0.944668
5.87E-09,0.899464
6.47E-09,0.856424
7.14E-09,0.815443
7.87E-09,0.776423
8.68E-09,0.73927
9.58E-09,0.703895
1.06E-08,0.670213
1.17E-08,0.638142
1.29E-08,0.607606
1.42E-08,0.57853
1.56E-08,0.550844
1.73E-08,0.524483
1.90E-08,0.499383
2.10E-08,0.475488
2.32E-08,0.452742
2.52E-08,0.43362
2.53E-08,0.433122
2.79E-08,0.412415
3.08E-08,0.3927
3.40E-08,0.373921
3.75E-08,0.356031
4.13E-08,0.338987
4.56E-08,0.322758
5.03E-08,0.307307
5.54E-08,0.292602
6.12E-08,0.278606
6.75E-08,0.265282
7.44E-08,0.252592
8.21E-08,0.240498
9.05E-08,0.228979
9.99E-08,0.218016
1.10E-07,0.207584
1.21E-07,0.197653
1.34E-07,0.188202
1.48E-07,0.179205
1.63E-07,0.170623
1.80E-07,0.162445
1.98E-07,0.154667
2.19E-07,0.147266
2.41E-07,0.14022
2.66E-07,0.13351
2.94E-07,0.127135
3.26E-07,0.120619
3.60E-07,0.114833
3.97E-07,0.109336
4.38E-07,0.104101
4.83E-07,0.099125
5.33E-07,0.094376
5.92E-07,0.08956
6.57E-07,0.0849631
7.25E-07,0.0808865
8.00E-07,0.077014
8.82E-07,0.0733238
9.73E-07,0.0698222
1.07E-06,0.0667053
1.18E-06,0.0632974
1.31E-06,0.0600488
1.45E-06,0.0571664
1.60E-06,0.0544277
1.76E-06,0.051817
1.95E-06,0.0493438
2.13E-06,0.0471262
2.38E-06,0.0445655
2.67E-06,0.0421241
2.94E-06,0.0401053
3.22E-06,0.038316
3.53E-06,0.0366028
3.87E-06,0.0349773
4.24E-06,0.0333983
4.74E-06,0.0315799
5.30E-06,0.029846
5.85E-06,0.0284121
6.40E-06,0.0271414
7.01E-06,0.025925
7.63E-06,0.0248556
8.36E-06,0.0237307
9.15E-06,0.0226768
9.96E-06,0.0217346
1.09E-05,0.02075
1.19E-05,0.01982
1.30E-05,0.0189949
1.40E-05,0.0182667
1.52E-05,0.017569
1.67E-05,0.0167093
1.83E-05,0.0159619
1.98E-05,0.0153461
2.18E-05,0.0145931
2.39E-05,0.0139328
2.58E-05,0.013394
2.79E-05,0.0128743
3.01E-05,0.0123759
3.32E-05,0.0117627
3.61E-05,0.0112687
3.93E-05,0.0107883
4.33E-05,0.0102499
4.71E-05,0.00981327
5.09E-05,0.00942619
5.54E-05,0.00902039
5.98E-05,0.0086631
6.64E-05,0.00819442
7.18E-05,0.00787003
7.75E-05,0.0075524
8.67E-05,0.00711335
9.43E-05,0.00680118
0.000101877,0.00652423
0.000110034,0.00625722
0.000119684,0.00597928
0.000132947,0.00564353
0.000143592,0.00541186
0.000155097,0.00518443
0.000172276,0.00489013
0.00018608,0.00468461
0.000202398,0.00446851
0.000220147,0.00426133
0.000239452,0.00406357
0.000264124,0.00384193
0.000283289,0.0036922
0.000310289,0.00350285
0.000344675,0.00329622
0.000372274,0.00315242
0.000404919,0.0030022
0.000440427,0.00285855
0.000475716,0.00273284
0.000528408,0.00256966
0.000566749,0.00246769
0.000616448,0.00234875
0.000683554,0.00221145
0.000741801,0.00210917
0.00080546,0.00201096
0.000878979,0.00191216
0.000949361,0.00182947
0.00105686,0.0017208
0.0011327,0.00165539
0.00123966,0.00157333
0.00137929,0.00148256
0.00148974,0.00142147
0.00161092,0.00136201
0.0017647,0.00129695
0.00191046,0.0012436
0.00212127,0.00117719
0.00226131,0.00113949
0.00247156,0.00108908
0.0027469,0.00103373
0.002967,0.000996315
0.00322184,0.000958848
0.00351179,0.000922742
0.0038085,0.00089192
0.00421798,0.000857844
0.00448611,0.000840962
0.00489009,0.000822447
0.00523766,0.000815538
0.00540149,0.000814591
0.00563612,0.000818432
0.00585352,0.000827285
0.0060327,0.000840324
0.0061905,0.000856741
0.00630885,0.000873171
0.0064272,0.000893915
0.00654555,0.00092062
0.0066639,0.000954368
0.00676253,0.000989568
0.00684143,0.00102345
0.00692588,0.00106686
0.00699923,0.00111246
0.00705841,0.0011552
0.00711758,0.00120529
0.00717676,0.00126289
0.00721621,0.00130694
0.00725566,0.0013561
0.00729511,0.0014111
0.00733456,0.00147294
0.00737401,0.00154284
0.00741346,0.00162214
0.00745291,0.0017126
0.0074825,0.00178926
0.00751208,0.00187405
0.00754167,0.00196941
0.00757126,0.00207564
0.00760085,0.00219597
0.00763044,0.00233116
0.00766002,0.002485
0.00767975,0.00260076
0.00769947,0.00272667
0.0077192,0.0028651
0.00773646,0.00299639
0.00775865,0.00318493
0.00777788,0.00336819
0.00779613,0.00355904
0.00781388,0.00376519
0.00783163,0.00399426
0.00784939,0.00424942
0.00786714,0.00453474
0.00788489,0.00485513
0.00790264,0.00521661
0.00791448,0.00548399
0.00792631,0.00577536
0.00793815,0.0060938
0.00794998,0.00644259
0.00796182,0.00682591
0.00797365,0.00724821
0.00798549,0.00771522
0.00799732,0.00823315
0.00800916,0.00880998
0.00802099,0.00945455
0.00802987,0.00998919
0.00803875,0.0105716
0.00804762,0.0112114
0.0080565,0.0119153
0.00806537,0.0126915
0.00807425,0.01355
0.00808313,0.0145028
0.008092,0.0155642
0.00810088,0.016751
0.0081068,0.0176219
0.00811272,0.0185645
0.00811863,0.0195869
0.00812455,0.0206983
0.00813047,0.021909
0.00813639,0.0232308
0.0081425,0.0247268
0.00814881,0.0264325
0.00815512,0.0283225
0.00816144,0.0304218
0.00816657,0.0323046
0.00817248,0.0347044
0.0081784,0.037381
0.00818432,0.0403771
0.00818826,0.0425769
0.00819221,0.0449589
0.00819615,0.047543
0.0082001,0.0503517
0.00820404,0.0534109
0.00820799,0.0567498
0.00821193,0.0604018
0.00821588,0.0644052
0.00821982,0.0688039
0.00822377,0.0736481
0.00822771,0.0789958
0.00823166,0.0849136
0.0082356,0.0914784
0.00823856,0.0968792
0.00824152,0.102735
0.00824448,0.109094
0.00824744,0.116006
0.0082504,0.123529
0.00825336,0.131726
0.00825631,0.140665
0.00825927,0.15042
0.00826223,0.161072
0.00826519,0.172704
0.00826815,0.185404
0.00827111,0.19926
0.00827407,0.214356
0.00827703,0.230766
0.00827999,0.248548
0.00828294,0.26773
0.0082859,0.288299
0.00828985,0.317737
0.00829399,0.350685
0.00830188,0.415559
0.00830543,0.443184
0.00830839,0.464004
0.00831135,0.481831
0.00831431,0.49576
0.00831628,0.502484
0.00831825,0.506941
0.00832082,0.509147
0.00832269,0.508143
0.00832456,0.50496
0.00832644,0.499677
0.00832925,0.488091
0.00833206,0.472646
0.00833487,0.454105
0.00833827,0.428711
0.00834444,0.378605
0.0083506,0.32833
0.0083543,0.299892
0.0083579,0.274078
0.00836145,0.250606
0.008365,0.229154
0.00836855,0.209677
0.00837092,0.197741
0.00837328,0.186599
0.00837565,0.176206
0.00837802,0.166519
0.00838157,0.153212
0.00838512,0.141242
0.00838867,0.130468
0.00839222,0.120761
0.00839479,0.114347
0.00839755,0.107946
0.00840031,0.102027
0.00840307,0.0965467
0.00840583,0.0914669
0.00840997,0.084523
0.00841412,0.078299
0.00841708,0.0742438
0.00842023,0.0702401
0.00842339,0.066538
0.00842654,0.0631096
0.00843128,0.0584263
0.00843601,0.0542297
0.00844075,0.0504572
0.00844548,0.0470557
0.00845021,0.0439796
0.00845495,0.0411901
0.00845968,0.0386536
0.00846441,0.0363412
0.00846974,0.0339769
0.00847536,0.0317222
0.00848098,0.0296856
0.00848661,0.0278419
0.00849223,0.026159
0.00849598,0.025118
0.00850224,0.0235128
0.0085085,0.022059
0.00851476,0.0207372
0.00852103,0.0195322
0.00852818,0.0182867
0.00853533,0.0171549
0.00854248,0.0161252
0.00854963,0.0151872
0.00855752,0.014246
0.00856541,0.0133917
0.0085733,0.0126141
0.00858119,0.0119041
0.00858908,0.0112544
0.00859697,0.0106583
0.00860486,0.0101101
0.00861275,0.00960484
0.00862458,0.0089182
0.00863642,0.00830591
0.00864825,0.0077579
0.00866009,0.00726531
0.00867192,0.00682114
0.00868376,0.0064191
0.00869559,0.00605419
0.00870743,0.00572188
0.00871926,0.00541851
0.0087311,0.00514074
0.00874392,0.00486576
0.00876365,0.00448891
0.00877844,0.00423642
0.00879225,0.00402177
0.00880605,0.00382523
0.00881986,0.00364469
0.00883367,0.00347853
0.00884846,0.00331474
0.00886326,0.0031641
0.00888545,0.0029602
0.00890764,0.00277829
0.00892983,0.00261641
0.00895202,0.00247087
0.00897175,0.00235399
0.00899147,0.00224714
0.0090112,0.00214931
0.00903092,0.00205949
0.00906051,0.0019383
0.0090901,0.00183016
0.00911968,0.00173432
0.00914927,0.00164808
0.00917886,0.00157097
0.00920845,0.00150106
0.0092479,0.00141823
0.00928735,0.00134527
0.0093268,0.00128067
0.00936625,0.00122319
0.0094057,0.00117236
0.00944515,0.00112615
0.0094846,0.00108451
0.00952405,0.00104683
0.00958323,0.00099645
0.0096424,0.000953022
0.00970158,0.000914533
0.00978018,0.000870514
0.00985938,0.000832882
0.00995193,0.00079551
0.0100404,0.000764927
0.0101466,0.000733726
0.0102552,0.000706685
0.010365,0.00068345
0.0105115,0.000657079
0.0106579,0.00063502
0.0108409,0.000611962
0.0110605,0.000589943
0.0113168,0.000569258
0.0116096,0.000550106
0.011939,0.000533173
0.0123783,0.000515194
0.0127695,0.000502219
0.0133406,0.000487462
0.0139934,0.000474055
0.0148093,0.00046173
0.015462,0.000454665
0.0164411,0.000447648
0.0170938,0.000445696
0.0174202,0.00044563
0.0179913,0.000447366
0.0186441,0.000452485
0.0192152,0.000460219
0.0196232,0.000468441
0.0200311,0.000479854
0.0204187,0.0004942
0.0207246,0.000508503
0.0210306,0.000526425
0.0212754,0.000543909
0.0215079,0.000563809
0.0217205,0.000585505
0.021924,0.000610221
0.0220546,0.000628552
0.0222504,0.000660295
0.0224136,0.000691561
0.0225767,0.00072797
0.0227073,0.000761756
0.0228378,0.000800492
0.0229684,0.000845151
0.0230663,0.000883451
0.0231642,0.00092604
0.0232621,0.000974508
0.02336,0.00102887
0.0234253,0.00106942
0.0234906,0.00111372
0.0235558,0.00116223
0.0236211,0.00121551
0.0236864,0.00127418
0.0237517,0.00133899
0.0238169,0.0014108
0.0238822,0.00149058
0.0239434,0.00157404
0.0240046,0.00166631
0.0240666,0.00177152
0.024109,0.00185052
0.0241564,0.001947
0.0242086,0.00206256
0.024251,0.00216729
0.0243,0.00229937
0.0243522,0.00245681
0.0243913,0.00258767
0.0244305,0.00273032
0.0244697,0.00288715
0.0245088,0.00305895
0.024548,0.00324884
0.0245872,0.00345794
0.0246263,0.00369042
0.0246655,0.00394787
0.0247046,0.00423595
0.0247308,0.00444628
0.0247569,0.00467326
0.024783,0.00491855
0.0248091,0.00518404
0.0248352,0.00547184
0.0248613,0.00578431
0.0248874,0.0061241
0.0249135,0.00649416
0.0249396,0.0068978
0.0249657,0.0073387
0.0249918,0.00781729
0.025018,0.0083451
0.0250441,0.00892385
0.0250702,0.00955902
0.0250963,0.0102566
0.0251224,0.0110228
0.0251485,0.0118645
0.0251746,0.0127881
0.0252007,0.0138003
0.0252268,0.0149066
0.0252529,0.0161112
0.025279,0.0174159
0.0253052,0.0188258
0.0253313,0.0203175
0.0253704,0.0226854
0.0254259,0.0261313
0.0254553,0.0278578
0.0254879,0.0295601
0.0255075,0.0304077
0.0255271,0.031089
0.0255467,0.0315794
0.0255653,0.0318483
0.0255819,0.0319254
0.0256035,0.0317706
0.0256196,0.031483
0.025638,0.0309818
0.0256576,0.0302667
0.0256772,0.0293903
0.0257033,0.0280199
0.02574,0.0258396
0.0258143,0.021214
0.0258404,0.0196601
0.0258665,0.0181899
0.0258926,0.0168145
0.0259187,0.0155394
0.0259448,0.0143652
0.0259709,0.0132891
0.025997,0.0123062
0.0260232,0.0114104
0.0260493,0.0105951
0.0260754,0.0098533
0.0261015,0.00917849
0.0261276,0.00856434
0.0261537,0.00800497
0.0261798,0.00749499
0.0262059,0.00702948
0.026232,0.00660399
0.0262581,0.00621454
0.0262842,0.00585753
0.0263104,0.00552977
0.0263365,0.00522838
0.0263626,0.00495082
0.0263887,0.00469479
0.0264148,0.00445827
0.0264409,0.00423943
0.0264801,0.00394131
0.0265192,0.0036736
0.0265584,0.00343407
0.0265976,0.00321767
0.0266367,0.00302285
0.0266759,0.00284588
0.026715,0.00268566
0.0267542,0.00253938
0.0267934,0.00240627
0.0268325,0.0022842
0.026875,0.00216402
0.0269239,0.00203778
0.0269761,0.00191707
0.0270284,0.00180855
0.0270708,0.00172845
0.0271132,0.0016549
0.0271744,0.0015595
0.0272356,0.00147453
0.0272927,0.00140475
0.0273417,0.00135148
0.0273906,0.00130478
0.0274396,0.00126464
0.0274885,0.00123312
0.0275212,0.001218
0.0275538,0.0012088
0.0275701,0.00120782
0.0275946,0.00121213
0.027613,0.00122148
0.0276313,0.00123811
0.0276436,0.00125441
0.0276558,0.001277
0.027668,0.0013075
0.0276793,0.00134472
0.0276877,0.0013802
0.0276961,0.00142401
0.0277045,0.00147899
0.0277101,0.00152353
0.0277167,0.00158638
0.0277225,0.00165188
0.0277282,0.00173032
0.027732,0.00179146
0.0277359,0.00186119
0.0277397,0.00194122
0.0277435,0.00203362
0.0277473,0.00214096
0.0277499,0.00222243
0.0277524,0.00231319
0.027755,0.00241471
0.0277575,0.00252872
0.0277601,0.00265736
0.0277626,0.00280319
0.0277649,0.00294741
0.0277668,0.00308543
0.0277687,0.00323883
0.0277706,0.00341001
0.0277725,0.00360185
0.0277744,0.00381791
0.0277763,0.0040625
0.0277778,0.00426786
0.0277792,0.00449499
0.0277805,0.00471783
0.0277817,0.00496317
0.027783,0.00523425
0.0277843,0.00553489
0.0277856,0.00586975
0.0277868,0.00624439
0.0277881,0.00666573
0.0277891,0.00701743
0.0277899,0.00735069
0.0277909,0.00780239
0.0277919,0.00830708
0.027793,0.00887411
0.0277937,0.00934727
0.0277945,0.00986811
0.0277953,0.010444
0.027796,0.0110838
0.0277968,0.0117982
0.0277976,0.0126003
0.0277983,0.0134545
0.0277988,0.014166
0.0277994,0.0149476
0.0277999,0.0158089
0.0278005,0.016761
0.027801,0.0178172
0.0278015,0.0189919
0.0278021,0.0203023
0.0278026,0.0217675
0.0278032,0.0234098
0.0278036,0.0249561
0.027804,0.0265013
0.0278045,0.0281927
0.0278049,0.0300464
0.0278053,0.0320767
0.0278057,0.0343013
0.0278061,0.0367377
0.0278065,0.0394055
0.027807,0.0423233
0.0278074,0.0455122
0.0278078,0.0489916
0.0278082,0.0529225
0.0278087,0.0572108
0.0278091,0.0618808
0.0278095,0.0669531
0.02781,0.0724514
0.0278104,0.0783917
0.0278108,0.0847928
0.0278112,0.091666
0.0278118,0.100425
0.0278123,0.109866
0.0278128,0.119992
0.0278133,0.130785
0.027814,0.14617
0.0278145,0.159651
0.0278154,0.181015
0.0278164,0.209497
0.027818,0.252256
0.0278188,0.272855
0.0278196,0.29215
0.0278203,0.307201
0.0278209,0.32049
0.0278215,0.330412
0.0278221,0.338527
0.0278227,0.344624
0.0278233,0.348606
0.0278238,0.350529
0.0278241,0.350711
0.0278246,0.34981
0.0278251,0.347102
0.0278257,0.342702
0.0278262,0.336663
0.0278269,0.32647
0.0278276,0.314208
0.0278282,0.300012
0.0278289,0.284232
0.0278296,0.265783
0.027831,0.228065
0.0278324,0.191547
0.0278332,0.171071
0.0278337,0.157079
0.0278343,0.14373
0.0278349,0.131104
0.0278354,0.120128
0.0278359,0.109846
0.0278364,0.100267
0.0278369,0.0913945
0.0278375,0.0832177
0.0278378,0.0776717
0.0278382,0.0720381
0.0278387,0.0668081
0.0278391,0.0619649
0.0278395,0.0574898
0.0278399,0.0533636
0.0278403,0.0495665
0.0278407,0.0460781
0.0278411,0.0433698
0.0278415,0.0403355
0.0278419,0.0375624
0.0278423,0.0350312
0.0278428,0.0327216
0.0278432,0.0306157
0.0278436,0.0286941
0.027844,0.0269421
0.0278444,0.0253433
0.0278449,0.0238838
0.0278453,0.0225501
0.0278458,0.0211372
0.0278463,0.0197753
0.0278468,0.0185527
0.0278473,0.0174516
0.0278479,0.016458
0.0278484,0.0155583
0.0278489,0.0147414
0.0278495,0.0139974
0.02785,0.0133177
0.0278507,0.0124989
0.0278513,0.01188
0.027852,0.011202
0.0278527,0.0105907
0.0278534,0.0100369
0.0278539,0.00969601
0.0278548,0.00907329
0.0278558,0.00851886
0.0278567,0.00802249
0.0278577,0.00757575
0.0278586,0.00717188
0.0278596,0.00679544
0.0278606,0.00645331
0.0278619,0.00604322
0.0278632,0.00567835
0.0278645,0.00535206
0.0278658,0.0050589
0.0278671,0.00479443
0.0278684,0.00455491
0.0278699,0.00430103
0.0278716,0.00404104
0.0278734,0.00381013
0.0278751,0.00360403
0.0278769,0.00341924
0.0278787,0.00325287
0.0278804,0.00310252
0.0278822,0.00296616
0.0278844,0.00280704
0.0278866,0.0026759
0.0278887,0.00255777
0.0278915,0.00241758
0.0278943,0.0022942
0.0278971,0.00218498
0.0278999,0.00208778
0.0279027,0.0020009
0.0279055,0.00192289
0.0279094,0.00182799
0.0279132,0.00174514
0.0279171,0.00167234
0.0279209,0.00160801
0.0279248,0.00155087
0.0279306,0.0014764
0.0279364,0.00141287
0.027942,0.0013596
0.0279476,0.00131309
0.027956,0.00125361
0.0279645,0.00120393
0.0279729,0.00116188
0.0279813,0.00112587
0.0279925,0.00108537
0.0280038,0.00105139
0.028015,0.00102227
0.0280319,0.000985802
0.0280487,0.000955792
0.0280712,0.000923077
0.0280936,0.000896182
0.0281161,0.000873323
0.0281442,0.00084917
0.0281722,0.00082823
0.0282172,0.000799907
0.0282817,0.000766536
0.0283407,0.000740666
0.0284081,0.000715164
0.0285064,0.000682979
0.0286032,0.000655533
0.0287506,0.000619777
0.028891,0.000590689
0.0290432,0.000563556
0.0292033,0.000538732
0.0293334,0.000520971
0.0295179,0.000498935
0.0297005,0.000479759
0.0299425,0.000458133
0.0301698,0.000440987
0.0304352,0.000424182
0.0307139,0.000409538
0.0309448,0.000399617
0.0311678,0.000392243
0.0313589,0.000388217
0.0314438,0.000387567
0.0315606,0.000388636
0.0316562,0.000392404
0.0317199,0.000397545
0.0317676,0.000403726
0.0318101,0.000411838
0.0318367,0.000418664
0.0318632,0.000427526
0.0318897,0.000439105
0.0319096,0.000450223
0.0319296,0.000464172
0.0319488,0.000481253
0.0319607,0.000494142
0.0319727,0.000509369
0.0319846,0.000527459
0.0319966,0.000549142
0.0320055,0.000568351
0.0320145,0.000590688
0.0320234,0.000616861
0.0320324,0.000647791
0.0320405,0.000680984
0.032047,0.000711675
0.0320535,0.000746949
0.0320599,0.000787813
0.0320643,0.000818796
0.0320686,0.000853295
0.0320729,0.000891846
0.0320779,0.000942225
0.0320828,0.00100011
0.0320862,0.00104364
0.0320895,0.00109176
0.0320928,0.00114514
0.0320961,0.00120458
0.0320994,0.00127102
0.032102,0.00132769
0.0321045,0.00138982
0.0321071,0.00145816
0.0321096,0.00153355
0.0321122,0.00161703
0.0321148,0.00170977
0.0321173,0.00181323
0.0321199,0.00192911
0.0321218,0.00202411
0.0321236,0.00212805
0.0321255,0.00224211
0.0321274,0.00236766
0.0321293,0.00250632
0.0321312,0.00266002
0.0321331,0.00283106
0.032135,0.00302219
0.0321363,0.0031701
0.0321377,0.00333089
0.032139,0.00350614
0.0321403,0.00369764
0.0321416,0.00390757
0.032143,0.00413836
0.0321443,0.00439299
0.0321456,0.00467491
0.0321467,0.00492291
0.0321477,0.00519355
0.0321488,0.00548979
0.0321499,0.00581504
0.0321509,0.00617344
0.032152,0.00656977
0.032153,0.00700987
0.0321541,0.00750061
0.0321549,0.00792473
0.0321558,0.00838961
0.0321566,0.00890091
0.0321574,0.00946503
0.0321583,0.0100898
0.0321591,0.0107839
0.0321599,0.0115581
0.0321605,0.0121985
0.0321611,0.0128116
0.0321618,0.0136443
0.0321625,0.0145635
0.0321631,0.0155799
0.0321638,0.0167057
0.0321645,0.0179543
0.0321652,0.0193404
0.0321657,0.0204798
0.0321662,0.0217123
0.0321667,0.0230958
0.0321673,0.0245961
0.0321678,0.0262224
0.0321683,0.0279833
0.0321689,0.0298887
0.0321694,0.0319467
0.0321699,0.0341663
0.0321705,0.0365551
0.0321712,0.040063
0.0321719,0.0439072
0.0321726,0.0480987
0.0321733,0.052641
0.032174,0.0575319
0.0321747,0.0619637
0.0321754,0.0676691
0.0321765,0.0767878
0.0321779,0.0887631
0.0321801,0.108486
0.0321811,0.116512
0.032182,0.123932
0.032183,0.130665
0.0321837,0.134574
0.0321843,0.137885
0.032185,0.140535
0.0321858,0.142687
0.0321865,0.143863
0.032187,0.144089
0.0321878,0.143583
