energy,sigma
1.00E-11,2194.07
1.10E-11,2089.08
1.22E-11,1989.12
1.34E-11,1893.93
1.48E-11,1803.31
1.63E-11,1717.02
1.80E-11,1634.86
1.99E-11,1556.63
2.19E-11,1482.14
2.42E-11,1411.22
2.67E-11,1343.69
2.94E-11,1279.4
3.24E-11,1218.18
3.58E-11,1159.88
3.95E-11,1104.38
4.35E-11,1051.54
4.80E-11,1001.22
5.30E-11,953.311
5.84E-11,907.694
6.44E-11,864.26
7.11E-11,822.905
7.84E-11,783.528
8.65E-11,746.035
9.54E-11,710.337
1.05E-10,676.347
1.16E-10,643.983
1.28E-10,613.168
1.41E-10,583.827
1.56E-10,555.89
1.72E-10,529.291
1.90E-10,503.964
2.09E-10,479.848
2.31E-10,456.887
2.54E-10,435.025
2.81E-10,414.208
3.09E-10,394.388
3.41E-10,375.516
3.77E-10,357.547
4.15E-10,340.438
4.58E-10,324.148
5.05E-10,308.637
5.57E-10,293.869
6.15E-10,279.807
6.78E-10,266.418
7.48E-10,253.669
8.25E-10,241.531
9.10E-10,229.973
1.00E-09,218.969
1.11E-09,208.491
1.22E-09,198.514
1.35E-09,189.015
1.49E-09,179.97
1.64E-09,171.358
1.81E-09,163.159
1.99E-09,155.351
2.20E-09,147.917
2.43E-09,140.839
2.68E-09,134.099
2.95E-09,127.682
3.26E-09,121.572
3.59E-09,115.755
3.96E-09,110.215
4.37E-09,104.941
4.82E-09,99.919
5.32E-09,95.1373
5.87E-09,90.5844
6.47E-09,86.2493
7.14E-09,82.1216
7.87E-09,78.1914
8.68E-09,74.4491
9.58E-09,70.8859
1.06E-08,67.4932
1.17E-08,64.2628
1.29E-08,61.1872
1.42E-08,58.2587
1.56E-08,55.4705
1.73E-08,52.8156
1.90E-08,50.2877
2.10E-08,47.8807
2.32E-08,45.5892
2.52E-08,43.6623
2.53E-08,43.6122
2.79E-08,41.5254
3.08E-08,39.5383
3.40E-08,37.6457
3.75E-08,35.8428
4.13E-08,34.1258
4.56E-08,32.4912
5.03E-08,30.9358
5.54E-08,29.4553
6.12E-08,28.0451
6.75E-08,26.701
7.44E-08,25.4202
8.21E-08,24.2002
9.05E-08,23.0387
9.99E-08,21.9334
1.10E-07,20.8821
1.21E-07,19.8821
1.34E-07,18.9293
1.48E-07,18.0203
1.63E-07,17.154
1.80E-07,16.3292
1.98E-07,15.5439
2.19E-07,14.797
2.41E-07,14.0874
2.66E-07,13.4108
2.94E-07,12.7645
3.24E-07,12.1487
3.57E-07,11.5625
3.94E-07,11.0042
4.35E-07,10.4736
4.80E-07,9.97007
5.29E-07,9.48744
5.83E-07,9.02723
6.44E-07,8.58895
7.10E-07,8.17149
7.83E-07,7.77384
8.64E-07,7.39605
9.59E-07,7.01201
1.06E-06,6.66852
1.17E-06,6.34127
1.29E-06,6.02946
1.42E-06,5.73226
1.57E-06,5.44895
1.73E-06,5.17885
1.91E-06,4.92188
2.13E-06,4.64302
2.35E-06,4.41009
2.59E-06,4.18782
2.86E-06,3.97544
3.16E-06,3.77303
3.48E-06,3.57966
3.81E-06,3.40842
4.27E-06,3.20752
4.71E-06,3.0397
5.15E-06,2.89031
5.64E-06,2.74678
6.23E-06,2.5991
6.82E-06,2.46752
7.47E-06,2.34156
8.42E-06,2.18455
9.28E-06,2.06129
1.01E-05,1.95971
1.10E-05,1.86185
1.19E-05,1.76728
1.31E-05,1.66874
1.43E-05,1.57412
1.57E-05,1.48335
1.70E-05,1.40957
1.86E-05,1.32525
2.01E-05,1.25628
2.17E-05,1.1898
2.32E-05,1.13127
2.49E-05,1.07469
2.67E-05,1.01975
2.85E-05,0.971755
3.05E-05,0.920057
3.30E-05,0.865061
3.56E-05,0.812355
3.85E-05,0.761529
4.13E-05,0.716939
4.43E-05,0.674128
4.85E-05,0.620741
5.24E-05,0.577776
5.62E-05,0.540316
5.98E-05,0.507865
6.33E-05,0.480046
6.69E-05,0.453174
7.13E-05,0.424102
7.59E-05,0.396396
8.14E-05,0.366928
8.67E-05,0.341817
9.11E-05,0.323012
9.57E-05,0.304959
0.00010046,0.287598
0.000104772,0.273261
0.000110034,0.257192
0.000115567,0.241719
0.000121372,0.227046
0.000127475,0.212952
0.000134822,0.197728
0.000140609,0.18681
0.000147672,0.174633
0.000155097,0.163085
0.000161755,0.153734
0.000168698,0.144742
0.000175939,0.136143
0.000184777,0.126679
0.000192708,0.119019
0.000202398,0.110543
0.000212564,0.102601
0.000220147,0.0972474
0.000227988,0.0921392
0.000237774,0.0863048
0.000247981,0.0808712
0.000258625,0.0757889
0.000269726,0.0710913
0.000279347,0.0674821
0.000289298,0.064189
0.000299617,0.0612483
0.000308131,0.0592249
0.000316886,0.0575858
0.000323608,0.0566966
0.000328174,0.0563232
0.000332803,0.0561772
0.000337669,0.0563526
0.000341242,0.0567467
0.000344849,0.0574418
0.000348489,0.0585276
0.000350939,0.0595337
0.000353406,0.0608275
0.00035589,0.0624816
0.000358392,0.0645942
0.000360281,0.0665604
0.00036217,0.0689215
0.000364087,0.071812
0.000365364,0.0740757
0.000366641,0.0766613
0.000367928,0.0796471
0.000369223,0.0831075
0.000370519,0.0871051
0.00037149,0.0905369
0.000372462,0.0944012
0.000373422,0.0987124
0.000374383,0.103594
0.000375343,0.109146
0.000376304,0.115491
0.000377264,0.122784
0.000377908,0.1283
0.000378557,0.134438
0.000379205,0.141249
0.000379854,0.148833
0.000380502,0.157309
0.000381151,0.166819
0.000381799,0.177537
0.000382285,0.186492
0.000382772,0.196345
0.000383355,0.209523
0.000383939,0.224425
0.000384328,0.235477
0.000384717,0.247554
0.000385106,0.260787
0.000385495,0.275325
0.000385884,0.291342
0.000386208,0.305967
0.000386533,0.321899
0.000386857,0.3393
0.000387181,0.358355
0.000387505,0.379281
0.000387829,0.402331
0.000388154,0.427804
0.000388478,0.456053
0.000388737,0.480928
0.000388997,0.508098
0.000389256,0.537853
0.000389515,0.570532
0.000389775,0.606534
0.000390034,0.646328
0.000390294,0.690472
0.000390553,0.739633
0.000390734,0.777453
0.000390916,0.81844
0.000391098,0.862962
0.000391279,0.911443
0.000391461,0.96437
0.000391642,1.02231
0.000391824,1.08593
0.000392005,1.15602
0.000392148,1.21622
0.000392291,1.28149
0.000392433,1.35246
0.000392576,1.4298
0.000392719,1.51433
0.000392861,1.607
0.000393004,1.70892
0.000393147,1.8214
0.000393263,1.92237
0.00039338,2.03246
0.000393497,2.15285
0.000393614,2.28492
0.00039373,2.43031
0.000393847,2.59098
0.000393964,2.76926
0.00039408,2.96796
0.000394171,3.1388
0.000394262,3.32599
0.000394353,3.53177
0.000394444,3.75882
0.000394534,4.01027
0.000394625,4.28982
0.000394716,4.60183
0.000394784,4.86022
0.000394846,5.11429
0.000394923,5.46615
0.000395001,5.85692
0.000395079,6.292
0.000395137,6.651
0.000395196,7.04115
0.000395254,7.46556
0.000395312,7.92754
0.000395371,8.43069
0.000395429,8.97884
0.000395491,9.61774
0.000395554,10.3177
0.000395616,11.0841
0.000395678,11.9226
0.00039574,12.8389
0.000395787,13.5807
0.000395839,14.4629
0.000395891,15.4094
0.000395943,16.4231
0.000395995,17.5069
0.000396046,18.6633
0.000396124,20.5389
0.000396202,22.5883
0.00039628,24.8143
0.000396358,27.216
0.000396436,29.7886
0.000396513,32.5224
0.000396617,36.3922
0.000396747,41.5168
0.000397053,54.0347
0.000397193,59.4108
0.000397297,63.0068
0.000397374,65.4071
0.000397444,67.3066
0.000397533,69.2977
0.000397603,70.528
0.000397681,71.5027
0.000397758,72.0444
0.000397814,72.1595
0.000397901,71.8811
0.000397994,70.9701
0.000398059,69.9786
0.000398156,67.9764
0.000398251,65.4909
0.000398345,62.594
0.000398438,59.3364
0.000398562,54.5814
0.000398905,40.6388
0.000399019,36.1665
0.000399102,33.0714
0.000399185,30.1385
0.000399268,27.3866
0.000399335,25.2923
0.000399413,23.0386
0.000399491,20.9606
0.000399569,19.0562
0.000399621,17.8807
0.000399673,16.778
0.000399724,15.7459
0.000399785,14.6309
0.000399845,13.6027
0.000399905,12.6564
0.000399966,11.7868
0.000400026,10.9888
0.000400086,10.2571
0.000400147,9.58685
0.000400207,8.97307
0.000400265,8.43281
0.000400323,7.93637
0.00040038,7.48005
0.000400438,7.0604
0.000400496,6.67419
0.000400554,6.31845
0.000400631,5.88682
0.000400708,5.49864
0.000400786,5.1487
0.00040087,4.806
0.000400915,4.63551
0.000401006,4.3221
0.000401097,4.04125
0.000401187,3.78858
0.000401278,3.56039
0.000401369,3.35355
0.00040146,3.16538
0.00040155,2.99363
0.000401667,2.79385
0.000401784,2.61458
0.000401901,2.45301
0.000402017,2.30677
0.000402134,2.17392
0.000402251,2.05281
0.000402367,1.94204
0.000402484,1.84043
0.000402627,1.72722
0.000402769,1.62463
0.000402912,1.53132
0.000403055,1.44618
0.000403197,1.36827
0.00040334,1.29678
0.000403483,1.23099
0.000403625,1.17031
0.000403807,1.09965
0.000403989,1.03548
0.00040417,0.977024
0.000404352,0.923613
0.000404533,0.874674
0.000404715,0.829716
0.000404896,0.788313
0.000405078,0.750097
0.000405305,0.706318
0.000405532,0.666472
0.000405759,0.630095
0.000405986,0.596792
0.000406213,0.566223
0.00040644,0.538094
0.00040678,0.499929
0.000407039,0.473702
0.000407331,0.446774
0.000407623,0.422257
0.000407915,0.39987
0.000408207,0.379372
0.000408498,0.360554
0.000408936,0.335091
0.000409228,0.319737
0.000409552,0.304016
0.000410038,0.282759
0.000410525,0.263915
0.000411011,0.247134
0.000411497,0.232125
0.000411822,0.222983
0.00041234,0.209609
0.000412859,0.197587
0.000413378,0.186738
0.000413897,0.176917
0.000414415,0.167997
0.000414934,0.159873
0.000415453,0.152452
0.000415972,0.145653
0.00041662,0.137927
0.000417269,0.130954
0.000417917,0.124637
0.000418565,0.118896
0.000419214,0.113661
0.000420186,0.106632
0.000421159,0.100448
0.000422229,0.0944619
0.000423299,0.0891961
0.000424369,0.084537
0.000425439,0.0803976
0.000426509,0.0767015
0.000427616,0.0732645
0.000428366,0.0711327
0.000429866,0.0672885
0.000431367,0.0639226
0.000432867,0.0609552
0.000434394,0.0582793
0.000435921,0.0558959
0.000437448,0.0537612
0.000439748,0.0509361
0.000442071,0.0484772
0.000444393,0.0463372
0.000446738,0.0444412
0.000448308,0.0432961
0.000451448,0.0412579
0.000454633,0.0394731
0.000457817,0.0379086
0.000461016,0.0365217
0.000465772,0.0347308
0.00047044,0.0332205
0.000475109,0.0319016
0.000480028,0.0306777
0.0004868,0.0291991
0.000493668,0.0278977
0.000500633,0.0267327
0.000511252,0.0251839
0.000521019,0.0239446
0.000531705,0.022742
0.000541829,0.0217212
0.000556115,0.0204337
0.000567912,0.0194788
0.000584049,0.0183019
0.000600128,0.017251
0.000617181,0.0162466
0.000635312,0.0152839
0.000652625,0.0144473
0.000672275,0.0135847
0.00069622,0.0126417
0.000715807,0.011943
0.000736147,0.0112785
0.000762406,0.0105043
0.000789562,0.00978431
0.000817726,0.00911651
0.00084394,0.00855532
0.000875065,0.0079555
0.000902135,0.00748707
0.000929496,0.00705106
0.000958956,0.00662691
0.000993114,0.0061823
0.00102751,0.0057805
0.00105363,0.00550084
0.00107975,0.00524207
0.00110587,0.00500163
0.00113992,0.00471438
0.00117594,0.00443602
0.00121036,0.00419535
0.00124475,0.00397465
0.00128909,0.00371664
0.00133339,0.00348368
0.00137665,0.00327931
0.00141932,0.00309637
0.00146987,0.00290037
0.00152231,0.00271816
0.00156556,0.00258173
0.00161092,0.00245091
0.00166806,0.00230143
0.00173147,0.00215257
0.00180148,0.00200707
0.00186816,0.00188426
0.00193711,0.00177094
0.00200491,0.0016705
0.00207445,0.00157796
0.00214845,0.00148977
0.00220888,0.00142431
0.0022949,0.00134036
0.00238969,0.00125841
0.00246866,0.00119729
0.00255567,0.00113686
0.00265999,0.00107209
0.0027504,0.00102215
0.00285619,0.000970085
0.00295721,0.000925974
0.00307039,0.000882094
0.00317702,0.000845498
0.00330314,0.000808796
0.00341951,0.000780216
0.00351926,0.000760851
0.00361236,0.000748137
0.00367886,0.000743215
0.00371264,0.000742564
0.00376126,0.000744593
0.00380192,0.000750156
0.00383735,0.000758711
0.00387224,0.000771783
0.00389678,0.000784772
0.00392376,0.00080396
0.00394187,0.000820584
0.00396147,0.000842998
0.003977,0.000864911
0.00399141,0.000889403
0.00400637,0.000920104
0.00402134,0.000957608
0.00403131,0.000987314
0.00404189,0.00102396
0.00405246,0.00106677
0.00406174,0.0011107
0.00407101,0.00116204
0.00407976,0.00121857
0.00408632,0.00126733
0.00409316,0.00132477
0.00410014,0.00139179
0.00410712,0.00146917
0.00411178,0.00152747
0.00411643,0.0015921
0.00412109,0.00166393
0.00412574,0.00174406
0.00413056,0.0018372
0.00413538,0.00194245
0.00414021,0.00206217
0.00414382,0.00216246
0.00414727,0.00226831
0.00415064,0.00238267
0.004154,0.00250923
0.00415737,0.00264985
0.00416074,0.00280668
0.00416415,0.00298462
0.00416764,0.00319027
0.00416996,0.00334257
0.00417229,0.00350874
0.00417462,0.00369046
0.00417695,0.00388953
0.00417927,0.00410817
0.0041816,0.00434951
0.0041841,0.0046373
0.00418659,0.00495977
0.00418908,0.00532254
0.00419075,0.00559015
0.00419241,0.00588118
0.00419407,0.00619845
0.00419565,0.00652712
0.00419715,0.00686595
0.00419864,0.00723471
0.00420014,0.00763704
0.00420164,0.00807714
0.00420313,0.0085599
0.00420463,0.00909104
0.00420612,0.00967725
0.00420741,0.0102322
0.00420903,0.0110058
0.00421011,0.0115745
0.00421119,0.0121911
0.00421228,0.012861
0.00421336,0.0135906
0.00421444,0.0143874
0.00421552,0.01526
0.00421676,0.0163746
0.00421801,0.0176225
0.00421884,0.0185393
0.00421967,0.0195328
0.0042205,0.0206117
0.00422134,0.0217863
0.00422217,0.0230681
0.00422292,0.0243247
0.00422366,0.0256907
0.00422441,0.0271791
0.00422516,0.0288053
0.00422591,0.030587
0.00422666,0.0325449
0.0042274,0.0347033
0.00422815,0.0370907
0.00422873,0.0391277
0.00422932,0.0413424
0.0042299,0.0437567
0.00423048,0.0463956
0.00423106,0.0492886
0.00423164,0.0524702
0.00423223,0.0559812
0.00423281,0.0598702
0.00423343,0.0645228
0.00423385,0.0679448
0.00423426,0.0716582
0.00423468,0.0756983
0.00423509,0.0801062
0.00423551,0.08493
0.00423592,0.0902266
0.00423632,0.0957577
0.00423669,0.10151
0.00423707,0.107832
0.00423744,0.114809
0.00423782,0.122544
0.00423819,0.131164
0.00423847,0.138305
0.00423875,0.146116
0.00423903,0.154698
0.00423927,0.162707
0.00423956,0.173467
0.00423985,0.185527
0.00424007,0.195578
0.00424029,0.206634
0.00424051,0.218855
0.00424072,0.232428
0.00424094,0.247578
0.00424116,0.264573
0.00424138,0.283734
0.00424157,0.302384
0.00424174,0.321547
0.00424192,0.342843
0.00424209,0.366574
0.00424227,0.393071
0.00424244,0.422717
0.00424262,0.455936
0.00424273,0.4803
0.00424285,0.506614
0.00424297,0.535048
0.00424308,0.565772
0.0042432,0.598975
0.00424331,0.634853
0.00424345,0.680869
0.00424359,0.731252
0.00424373,0.786394
0.00424386,0.846695
0.004244,0.912584
0.00424414,0.984496
0.00424427,1.06289
0.00424441,1.14822
0.00424455,1.24099
0.00424469,1.34164
0.00424478,1.41337
0.00424493,1.53915
0.00424508,1.67588
0.00424523,1.82414
0.00424538,1.98446
0.00424553,2.15735
0.00424567,2.34324
0.00424582,2.54251
0.00424597,2.75539
0.00424615,3.02127
0.00424632,3.306
0.0042465,3.60945
0.00424667,3.93118
0.0042469,4.38729
0.00424718,4.96134
0.00424745,5.56888
0.00424787,6.53833
0.00424853,8.08748
0.0042489,8.91744
0.00424922,9.56463
0.0042495,10.0627
0.00424975,10.4454
0.00424999,10.7395
0.00425023,10.9601
0.00425048,11.1061
0.00425066,11.1563
0.00425076,11.1637
0.00425095,11.1371
0.00425118,11.0354
0.00425143,10.8443
0.00425167,10.5812
0.00425191,10.2484
0.00425217,9.80589
0.00425246,9.2448
0.00425278,8.56412
0.00425318,7.64819
0.00425389,5.98147
0.00425417,5.35024
0.00425446,4.71482
0.00425465,4.31379
0.00425487,3.89792
0.00425504,3.57829
0.00425522,3.277
0.00425539,2.99441
0.00425557,2.73069
0.00425568,2.56531
0.00425583,2.36478
0.00425598,2.17763
0.00425613,2.0035
0.00425628,1.84197
0.00425643,1.69254
0.00425658,1.55468
0.00425673,1.42781
0.00425688,1.31134
0.00425703,1.20464
0.00425718,1.1071
0.00425733,1.01811
0.00425748,0.937055
0.00425763,0.863332
0.00425778,0.796374
0.00425793,0.735623
0.00425808,0.680562
0.00425823,0.63068
0.00425838,0.585521
0.00425854,0.541949
0.00425866,0.51206
0.00425878,0.48447
0.0042589,0.458996
0.00425902,0.435466
0.00425914,0.413718
0.00425932,0.384121
0.0042595,0.35775
0.00425968,0.334205
0.00425986,0.313129
0.00426004,0.294214
0.00426022,0.277184
0.0042604,0.261806
0.00426062,0.245149
0.00426084,0.230288
0.00426106,0.216961
0.00426128,0.204951
0.0042615,0.194075
0.00426171,0.184181
0.004262,0.172297
0.0042623,0.161686
0.00426259,0.152149
0.00426292,0.142363
0.0042632,0.134898
0.00426348,0.12806
0.00426385,0.119787
0.00426423,0.112348
0.0042646,0.105625
0.00426498,0.0995232
0.00426535,0.0939632
0.00426572,0.0888794
0.00426618,0.083232
0.00426664,0.0781287
0.0042671,0.0734992
0.00426755,0.0692848
0.00426801,0.0654355
0.00426847,0.0619094
0.00426892,0.0586702
0.00426938,0.0556869
0.00426996,0.0522177
0.00427055,0.0490723
0.00427113,0.0462106
0.00427171,0.043599
0.00427229,0.0412086
0.00427287,0.0390147
0.00427346,0.0369962
0.00427404,0.0351345
0.00427479,0.0329459
0.00427553,0.0309612
0.00427628,0.0291555
0.00427703,0.0275077
0.00427778,0.0259999
0.00427853,0.0246164
0.00427927,0.0233438
0.00428002,0.0221706
0.00428085,0.0209712
0.00428168,0.0198698
0.00428252,0.0188561
0.00428335,0.0179209
0.00428459,0.0166483
0.00428584,0.0155121
0.00428667,0.0148209
0.00428784,0.0139316
0.004289,0.0131233
0.00429016,0.0123863
0.00429133,0.0117125
0.00429249,0.0110948
0.00429365,0.0105273
0.00429482,0.0100046
0.00429598,0.00952232
0.00429748,0.00895492
0.00429897,0.00844005
0.00430047,0.0079714
0.00430197,0.00754359
0.00430346,0.00715197
0.00430496,0.00679259
0.00430646,0.00646197
0.00430795,0.00615712
0.00430961,0.00584545
0.00431128,0.00555925
0.00431377,0.00517187
0.00431626,0.00482807
0.00431876,0.00452161
0.00432125,0.00424745
0.00432375,0.00400108
0.00432624,0.00377838
0.00432873,0.00357654
0.00433123,0.00339335
0.00433372,0.0032266
0.00433621,0.0030742
0.00433996,0.0028689
0.00434345,0.00269921
0.00434681,0.00255277
0.00435018,0.00242092
0.00435355,0.00230175
0.00435691,0.00219368
0.00436036,0.00209311
0.00436398,0.00199738
0.0043688,0.00188311
0.00437362,0.00178198
0.00437844,0.001692
0.00438318,0.00161287
0.00438792,0.00154173
0.00439266,0.00147754
0.00439739,0.00141941
0.00440249,0.00136282
0.00441012,0.0012878
0.00441776,0.00122289
0.00442646,0.00115859
0.00443515,0.00110302
0.00444378,0.00105502
0.00445226,0.00101355
0.00446356,0.000965603
0.00447354,0.000929041
0.00448351,0.00089687
0.00449847,0.000855433
0.0045139,0.00081956
0.00453003,0.000787913
0.00454709,0.000759531
0.00456414,0.000735334
0.00458419,0.000711159
0.00460913,0.000685947
0.00464085,0.000659859
0.0046753,0.000637027
0.0047152,0.000615654
0.0047551,0.000598187
0.00480371,0.000580652
0.00486256,0.000563307
0.00492764,0.000547785
0.00500482,0.00053267
0.00511191,0.000515668
0.00522081,0.000501958
0.00529621,0.000495045
0.00534515,0.000493188
0.00537705,0.000494971
0.00539532,0.000498741
0.00540676,0.000503159
0.00541748,0.000509826
0.00542551,0.000517569
0.00543087,0.000524752
0.00543623,0.000534334
0.00544159,0.00054745
0.00544609,0.000562546
0.00544974,0.000578769
0.00545248,0.000594197
0.00545522,0.000613441
0.00545705,0.00062906
0.00545888,0.000647552
0.0054607,0.000669658
0.00546253,0.000696375
0.00546375,0.000717405
0.00546496,0.000741619
0.00546618,0.000769697
0.0054674,0.000802524
0.00546831,0.000830944
0.00546922,0.000863304
0.00547014,0.000900391
0.00547105,0.000943198
0.00547196,0.000993004
0.00547257,0.0010309
0.00547318,0.00107326
0.00547379,0.00112085
0.0054744,0.00117461
0.00547501,0.00123574
0.00547562,0.00130575
0.00547607,0.0013653
0.00547653,0.00143206
0.00547699,0.00150748
0.00547744,0.0015934
0.0054779,0.00169237
0.00547821,0.00176726
0.00547851,0.00185085
0.00547881,0.00194485
0.00547912,0.00205149
0.00547935,0.00214144
0.00547957,0.00224153
0.0054798,0.00235357
0.00548003,0.00247969
0.00548026,0.00262244
0.00548049,0.00278491
0.00548072,0.00297077
0.00548087,0.00310977
0.00548102,0.00326257
0.00548117,0.00343081
0.00548132,0.00361631
0.00548148,0.00382113
0.00548163,0.0040475
0.00548178,0.0042979
0.00548193,0.00457507
0.00548209,0.00488198
0.00548224,0.0052219
0.00548239,0.00559834
0.00548254,0.00601513
0.00548269,0.0064764
0.00548285,0.00698656
0.005483,0.00755033
0.00548315,0.00817269
0.00548328,0.00874111
0.00548343,0.00948889
0.00548358,0.0103118
0.00548374,0.0112157
0.00548389,0.0122071
0.00548404,0.0132922
0.0054842,0.0144777
0.00548435,0.0157698
0.0054845,0.0171753
0.00548466,0.0187003
0.00548481,0.0203512
0.00548494,0.0218773
0.0054851,0.0238856
0.00548526,0.0260514
